"Latest: Time (s)","Latest: Radiation (Counts)"
10,28
20,30
30,31
40,28
50,30
60,35
70,26
80,27
90,27
100,29
110,31
120,29
130,38
140,35
150,30
160,33
170,25
180,32
190,28
200,29
210,28
220,28
230,33
240,33
250,27
260,26
270,35
280,23
290,26
300,29
310,39
320,19
330,24
340,31
350,27
360,30
370,27
380,23
390,22
400,39
410,28
420,33
430,31
440,27
450,32
460,36
470,26
480,28
490,30
500,27
510,29
520,27
530,30
540,31
550,30
560,30
570,30
580,27
590,33
600,24
